16.3876
546.705
440.562
3.9611
345.85
262.5829
190.7749
130.4376
18.3372
81.5805
44.2117
44.2117
81.5805
130.4376
190.7749
262.5829
18.3372
2.0843
345.85
440.562
546.705
16.2529
16.2529
16.3876
18.3372
16.2529
18.3372
42.2001
42.2001
42.224
44.2117
42.2001
44.2117
79.607
79.5646
81.5805
79.607
81.5805
42.2001
128.4921
128.3978
130.4376
128.4921
130.4376
188.8532
188.7135
190.7749
188.8532
190.7749
260.6826
260.5011
262.5829
260.6826
262.5829
343.9697
343.7484
345.85
343.9697
345.85
438.7015
438.4418
440.562
438.7015
440.562
544.8628
544.5658
546.705
544.8628
546.705
662.103
664.261
662.4368
791.0344
793.21
791.4045
931.339
933.533
931.745
1082.9941
1085.206
1083.4356
1245.975
1248.204
1246.4518
1420.2552
1422.502
1420.7672
1605.8064
1608.071
1606.3533
16.2529
544.8628
438.7015
2.0843
343.9697
260.6826
188.8532
128.4921
16.3876
79.607
42.224
42.2001
79.5646
128.3978
188.7135
260.5011
16.2529
0.0000
343.7484
438.4418
544.5658
3.9611
2.0843
2.0843
3.9611
0.0000
2.0843
18.3372
16.3876
16.3876
18.3372
16.2529
16.3876
44.2117
42.224
44.2117
42.2001
42.224
2.0843
81.5805
79.5646
81.5805
79.607
79.5646
130.4376
128.3978
130.4376
128.4921
128.3978
190.7749
188.7135
190.7749
188.8532
188.7135
262.5829
260.5011
262.5829
260.6826
260.5011
345.85
343.7484
345.85
343.9697
343.7484
440.562
438.4418
440.562
438.7015
438.4418
546.705
544.5658
546.705
544.8628
544.5658
662.103
664.261
662.4368
791.0344
793.21
791.4045
931.339
933.533
931.745
1082.9941
1085.206
1083.4356
1245.975
1248.204
1246.4518
1420.2552
1422.502
1420.7672
9999.9