0.000207
0.002045
0.00255
0.2308
0.003268
0.004338
0.006036
0.008967
0.05132
0.0147
0.02207
0.02842
0.01222
0.007753
0.005353
0.003916
0.0769
0.1077
0.002989
0.002356
0.001905
0.1615
0.017752
0.262699
0.1714
0.09234
0.06596
0.04342
0.001458
0.304466
0.2727
0.259873
0.02613
0.01979
0.32365
0.3077
0.303719
0.01387
0.00103
0.01127
0.33465
0.3251
0.323348
0.008577
0.007271
0.341777
0.3345
0.334499
0.005822
0.005076
0.346767
0.3422
0.341691
0.004209
0.003743
0.3504
0.3471
0.346713
0.003184
0.002874
0.3532
0.3506
0.35042
0.002492
0.002275
0.3555
0.3534
0.3533
0.002079
0.3573
0.3556
0.3589
0.3589
0.3574
0.3574
0.3601
0.3589
0.3589
0.3612
0.3602
0.3602
0.3622
0.3613
0.3613
0.363
0.3622
0.3622
0.3637
0.363
0.363
0.000373
0.002156
0.002705
0.1385
0.003493
0.004685
0.00661
0.010022
0.03991
0.01696
0.01867
0.03474
0.01078
0.007014
0.004924
0.003646
0.1077
0.5383
0.002808
0.002229
0.001812
0.2692
0.017752
0.4729
0.4
0.4617
0.09234
0.05583
0.001458
0.439784
0.4286
0.467772
0.03193
0.02339
0.423234
0.4196
0.438706
0.016
0.001854
0.01278
0.413391
0.4118
0.422839
0.009586
0.008037
0.406877
0.406
0.413205
0.006377
0.005517
0.40225
0.4017
0.406775
0.004546
0.00402
0.398795
0.3985
0.402187
0.003403
0.003059
0.3961
0.3959
0.3988
0.002643
0.002405
0.393979
0.3938
0.3961
0.002112
0.001941
0.3922
0.3921
0.394
0.001726
0.3908
0.3907
0.3922
0.3895
0.3895
0.3908
0.3885
0.3885
0.3896
0.3876
0.3876
0.3885
0.3868
0.3868
0.3876
0.3861
0.3861
0.3868

