TES_File_ID = "L2: True Full State Vector Data"
Data_Size = 86 x 15
surfaceTemperature = 302.39513
PSUR = 1006.77
boresightNadirAngle = 0.
latitude = -19.810126
longitude = 171.97993
End_of_Header  ****  End_of_Header  ****  End_of_Header  ****  End_of_Header
Level Pressure     Altitude     TATM     H2O       CO2    O3        N2O       CO        CH4       O2     NO         NO2        HNO3       OCS   
-     hPa          m            K        VMR       VMR    VMR       VMR       VMR       VMR       VMR    VMR        VMR        VMR        VMR   
  1   1006.7700000 0.000000000  2.9548E2 2.2817E-2 3.8E-4 1.8375E-8 3.1233E-7 7.7352E-8 1.6317E-6 1.E-20 2.6954E-12 7.1101E-12 2.8951E-11 1.E-20
  2   1000.0000000 0.058796911  2.9512E2 2.2502E-2 3.8E-4 1.8456E-8 3.1236E-7 7.7360E-8 1.6321E-6 1.E-20 2.7219E-12 7.0657E-12 3.0422E-11 1.E-20
  3   908.5140000  0.886562080  2.9005E2 1.8472E-2 3.8E-4 1.9640E-8 3.1282E-7 7.7473E-8 1.6380E-6 1.E-20 3.1289E-12 6.4636E-12 6.1569E-11 1.E-20
  4   825.4020000  1.699051600  2.8506E2 1.4405E-2 3.8E-4 2.7096E-8 3.1312E-7 8.2067E-8 1.6485E-6 1.E-20 5.0328E-12 7.6682E-12 1.3468E-10 1.E-20
  5   749.8930000  2.500144100  2.8324E2 5.0696E-3 3.8E-4 4.5368E-8 3.1392E-7 9.4577E-8 1.6705E-6 1.E-20 1.3249E-11 2.0654E-11 2.8660E-10 1.E-20
  6   681.2910000  3.294104200  2.8115E2 1.9646E-3 3.8E-4 6.5002E-8 3.1455E-7 1.0464E-7 1.6883E-6 1.E-20 2.9166E-11 4.5678E-11 4.2118E-10 1.E-20
  7   618.9660000  4.078710100  2.7682E2 1.6234E-3 3.8E-4 6.2874E-8 3.1460E-7 1.0246E-7 1.6929E-6 1.E-20 3.9217E-11 5.0472E-11 3.3608E-10 1.E-20
  8   562.3420000  4.850394300  2.7190E2 1.2095E-3 3.8E-4 5.9586E-8 3.1468E-7 1.0495E-7 1.7032E-6 1.E-20 3.3328E-11 3.4265E-11 1.8707E-10 1.E-20
  9   510.8980000  5.608149500  2.6686E2 9.0577E-4 3.8E-4 5.4598E-8 3.1476E-7 1.0697E-7 1.7110E-6 1.E-20 2.5657E-11 2.0568E-11 1.0255E-10 1.E-20
  10  464.1600000  6.351863300  2.6183E2 8.1868E-4 3.8E-4 4.0904E-8 3.1482E-7 9.9008E-8 1.6925E-6 1.E-20 1.9613E-11 1.0752E-11 6.9703E-11 1.E-20
  11  421.6980000  7.081388000  2.5668E2 6.7694E-4 3.8E-4 3.3771E-8 3.1489E-7 9.5304E-8 1.6820E-6 1.E-20 1.6998E-11 6.7520E-12 5.2278E-11 1.E-20
  12  383.1170000  7.796396400  2.5138E2 4.9988E-4 3.8E-4 3.1448E-8 3.1497E-7 9.6680E-8 1.6822E-6 1.E-20 1.7538E-11 5.3984E-12 4.1976E-11 1.E-20
  13  348.0690000  8.496673300  2.4618E2 3.5487E-4 3.8E-4 3.0915E-8 3.1500E-7 9.8669E-8 1.6880E-6 1.E-20 1.9255E-11 4.9147E-12 3.2416E-11 1.E-20
  14  316.2270000  9.182534500  2.4105E2 2.4692E-4 3.8E-4 3.1184E-8 3.1501E-7 1.0083E-7 1.6959E-6 1.E-20 2.1761E-11 4.7261E-12 2.5230E-11 1.E-20
  15  287.2980000  9.854661300  2.3634E2 1.3406E-4 3.8E-4 3.6705E-8 3.1501E-7 1.0322E-7 1.7000E-6 1.E-20 2.8891E-11 5.8293E-12 3.0590E-11 1.E-20
  16  261.0160000  10.513830000 2.3177E2 7.7452E-5 3.8E-4 4.4175E-8 3.1499E-7 1.0553E-7 1.7024E-6 1.E-20 3.7038E-11 7.0629E-12 4.0495E-11 1.E-20
  17  237.1370000  11.160714000 2.2750E2 5.1746E-5 3.8E-4 5.4951E-8 3.1495E-7 1.0756E-7 1.7016E-6 1.E-20 4.3838E-11 8.2453E-12 6.2658E-11 1.E-20
  18  215.4440000  11.795626000 2.2321E2 3.9222E-5 3.8E-4 6.5779E-8 3.1491E-7 1.1050E-7 1.7042E-6 1.E-20 5.3230E-11 9.5979E-12 8.7035E-11 1.E-20
  19  195.7350000  12.418551000 2.1889E2 3.1469E-5 3.8E-4 7.7231E-8 3.1487E-7 1.1416E-7 1.7089E-6 1.E-20 6.5555E-11 1.1191E-11 1.1364E-10 1.E-20
  20  177.8290000  13.029226000 2.1443E2 2.1691E-5 3.8E-4 7.9010E-8 3.1483E-7 1.0450E-7 1.7127E-6 1.E-20 7.6549E-11 1.0765E-11 1.1902E-10 1.E-20
  21  161.5610000  13.627802000 2.1022E2 1.4885E-5 3.8E-4 8.1180E-8 3.1479E-7 9.5517E-8 1.7168E-6 1.E-20 9.0959E-11 1.0625E-11 1.2656E-10 1.E-20
  22  146.7790000  14.216126000 2.0701E2 1.0467E-5 3.8E-4 8.7446E-8 3.1473E-7 8.9741E-8 1.7223E-6 1.E-20 1.1295E-10 1.1224E-11 1.4813E-10 1.E-20
  23  133.3520000  14.795891000 2.0415E2 7.8375E-6 3.8E-4 1.0283E-7 3.1460E-7 8.7575E-8 1.7275E-6 1.E-20 1.3758E-10 1.2640E-11 1.7215E-10 1.E-20
  24  121.1520000  15.368244000 2.0163E2 6.2299E-6 3.8E-4 1.3280E-7 3.1442E-7 8.8508E-8 1.7322E-6 1.E-20 1.6426E-10 1.5310E-11 2.0037E-10 1.E-20
  25  110.0690000  15.934921000 2.0008E2 5.3924E-6 3.8E-4 1.4824E-7 3.1424E-7 8.2029E-8 1.7313E-6 1.E-20 1.7244E-10 1.4965E-11 2.2406E-10 1.E-20
  26  100.0000000  16.497835000 1.9889E2 4.7895E-6 3.8E-4 1.6081E-7 3.1405E-7 7.4529E-8 1.7284E-6 1.E-20 1.7618E-10 1.4074E-11 2.4728E-10 1.E-20
  27  90.8518000   17.059495000 1.9910E2 4.4627E-6 3.8E-4 1.9247E-7 3.1364E-7 6.8999E-8 1.7212E-6 1.E-20 1.8854E-10 1.5903E-11 2.6822E-10 1.E-20
  28  82.5406000   17.622683000 1.9990E2 4.2110E-6 3.8E-4 2.6328E-7 3.1233E-7 6.2576E-8 1.7097E-6 1.E-20 2.0874E-10 2.1816E-11 3.2523E-10 1.E-20
  29  74.9896000   18.189549000 2.0162E2 4.0495E-6 3.8E-4 4.3981E-7 3.0970E-7 5.4996E-8 1.6918E-6 1.E-20 2.4319E-10 3.9961E-11 4.6577E-10 1.E-20
  30  68.1295000   18.762744000 2.0431E2 3.9738E-6 3.8E-4 6.2246E-7 3.0677E-7 5.0148E-8 1.6771E-6 1.E-20 2.6195E-10 6.0180E-11 6.0180E-10 1.E-20
  31  61.8963000   19.344324000 2.0743E2 3.9332E-6 3.8E-4 8.2547E-7 3.0374E-7 4.6536E-8 1.6640E-6 1.E-20 2.7338E-10 8.4516E-11 7.5439E-10 1.E-20
  32  56.2339000   19.934156000 2.1011E2 3.9378E-6 3.8E-4 1.0782E-6 2.9933E-7 4.0595E-8 1.6453E-6 1.E-20 2.9025E-10 1.1533E-10 9.0918E-10 1.E-20
  33  51.0896000   20.531513000 2.1268E2 3.9482E-6 3.8E-4 1.4117E-6 2.9491E-7 3.5495E-8 1.6270E-6 1.E-20 3.0888E-10 1.5805E-10 1.0977E-9  1.E-20
  34  46.4158000   21.135404000 2.1464E2 3.9801E-6 3.8E-4 1.7820E-6 2.9065E-7 3.1848E-8 1.6123E-6 1.E-20 3.3082E-10 2.0587E-10 1.2412E-9  1.E-20
  35  42.1696000   21.744697000 2.1642E2 4.0141E-6 3.8E-4 2.2449E-6 2.8573E-7 2.8491E-8 1.5963E-6 1.E-20 3.5899E-10 2.6935E-10 1.4043E-9  1.E-20
  36  38.3119000   22.358287000 2.1760E2 4.0546E-6 3.8E-4 2.8086E-6 2.7876E-7 2.5263E-8 1.5763E-6 1.E-20 4.0511E-10 3.5701E-10 1.5921E-9  1.E-20
  37  34.8071000   22.975253000 2.1872E2 4.0961E-6 3.8E-4 3.4265E-6 2.7269E-7 2.3005E-8 1.5587E-6 1.E-20 4.5833E-10 4.6130E-10 1.7568E-9  1.E-20
  38  31.6229000   23.595302000 2.1969E2 4.1391E-6 3.8E-4 3.9761E-6 2.6824E-7 2.2124E-8 1.5455E-6 1.E-20 5.2174E-10 5.6894E-10 1.8421E-9  1.E-20
  39  28.7299000   24.218226000 2.2065E2 4.1858E-6 3.8E-4 4.6454E-6 2.6158E-7 2.1591E-8 1.5293E-6 1.E-20 6.1539E-10 7.2915E-10 1.9875E-9  1.E-20
  40  26.1017000   24.843929000 2.2159E2 4.2387E-6 3.8E-4 5.4728E-6 2.5104E-7 2.1618E-8 1.5072E-6 1.E-20 7.7212E-10 9.8933E-10 2.2327E-9  1.E-20
  41  23.7136000   25.472436000 2.2248E2 4.2915E-6 3.8E-4 6.2813E-6 2.3991E-7 2.1852E-8 1.4835E-6 1.E-20 9.8298E-10 1.3259E-9  2.4863E-9  1.E-20
  42  21.5443000   26.103383000 2.2329E2 4.3432E-6 3.8E-4 6.8356E-6 2.2733E-7 2.2514E-8 1.4562E-6 1.E-20 1.2881E-9  1.7358E-9  2.7240E-9  1.E-20
  43  19.5734000   26.736737000 2.2408E2 4.3983E-6 3.8E-4 7.3666E-6 2.1472E-7 2.3277E-8 1.4298E-6 1.E-20 1.6811E-9  2.2413E-9  2.9584E-9  1.E-20
  44  17.7828000   27.372398000 2.2483E2 4.4619E-6 3.8E-4 7.7150E-6 2.0092E-7 2.4304E-8 1.4050E-6 1.E-20 2.1586E-9  2.7706E-9  3.1150E-9  1.E-20
  45  16.1560000   28.010329000 2.2559E2 4.5277E-6 3.8E-4 8.0599E-6 1.8768E-7 2.5336E-8 1.3806E-6 1.E-20 2.7596E-9  3.4012E-9  3.2643E-9  1.E-20
  46  14.6780000   28.650567000 2.2636E2 4.6033E-6 3.8E-4 8.2672E-6 1.7305E-7 2.6088E-8 1.3561E-6 1.E-20 3.4025E-9  3.9672E-9  3.2918E-9  1.E-20
  47  13.3352000   29.293121000 2.2713E2 4.6803E-6 3.8E-4 8.4799E-6 1.5959E-7 2.6863E-8 1.3320E-6 1.E-20 4.1960E-9  4.6285E-9  3.3201E-9  1.E-20
  48  12.1153000   29.938114000 2.2801E2 4.7634E-6 3.8E-4 8.5299E-6 1.4415E-7 2.7436E-8 1.3018E-6 1.E-20 5.0136E-9  5.1526E-9  3.2528E-9  1.E-20
  49  11.0070000   30.585744000 2.2890E2 4.8483E-6 3.8E-4 8.5706E-6 1.3008E-7 2.8008E-8 1.2718E-6 1.E-20 5.9802E-9  5.7212E-9  3.1817E-9  1.E-20
  50  10.0000000   31.236414000 2.3002E2 4.9345E-6 3.8E-4 8.6238E-6 1.1989E-7 2.8636E-8 1.2490E-6 1.E-20 6.8363E-9  6.1003E-9  2.9723E-9  1.E-20
  51  9.0851400    31.890513000 2.3123E2 5.0222E-6 3.8E-4 8.6825E-6 1.1151E-7 2.9299E-8 1.2292E-6 1.E-20 7.6818E-9  6.3988E-9  2.7256E-9  1.E-20
  52  8.2540200    32.548299000 2.3255E2 5.1094E-6 3.8E-4 8.6828E-6 1.0285E-7 2.9884E-8 1.2053E-6 1.E-20 8.5472E-9  6.6019E-9  2.4638E-9  1.E-20
  53  7.4989300    33.210194000 2.3403E2 5.1954E-6 3.8E-4 8.6048E-6 9.3725E-8 3.0354E-8 1.1759E-6 1.E-20 9.3850E-9  6.6621E-9  2.1849E-9  1.E-20
  54  6.8129100    33.876420000 2.3550E2 5.2835E-6 3.8E-4 8.5216E-6 8.4966E-8 3.0793E-8 1.1449E-6 1.E-20 1.0285E-8  6.7014E-9  1.9309E-9  1.E-20
  55  6.1896600    34.547044000 2.3704E2 5.3798E-6 3.8E-4 8.3818E-6 7.3085E-8 3.0846E-8 1.0917E-6 1.E-20 1.1058E-8  6.5290E-9  1.6488E-9  1.E-20
  56  5.6234200    35.222173000 2.3857E2 5.4779E-6 3.8E-4 8.2443E-6 6.2869E-8 3.0900E-8 1.0409E-6 1.E-20 1.1889E-8  6.3613E-9  1.4079E-9  1.E-20
  57  5.1089800    35.902174000 2.4037E2 5.5757E-6 3.8E-4 8.0204E-6 5.1608E-8 3.0698E-8 9.7807E-7 1.E-20 1.2539E-8  5.9976E-9  1.1649E-9  1.E-20
  58  4.6416000    36.587591000 2.4228E2 5.6744E-6 3.8E-4 7.7664E-6 4.1557E-8 3.0391E-8 9.1296E-7 1.E-20 1.3117E-8  5.5767E-9  9.5120E-10 1.E-20
  59  4.2169800    37.278803000 2.4435E2 5.7648E-6 3.8E-4 7.4883E-6 3.3191E-8 3.0050E-8 8.4724E-7 1.E-20 1.3600E-8  5.1083E-9  7.6287E-10 1.E-20
  60  3.8311700    37.976780000 2.4689E2 5.8282E-6 3.8E-4 7.1336E-6 2.5883E-8 2.9610E-8 7.7306E-7 1.E-20 1.3749E-8  4.4864E-9  5.8176E-10 1.E-20
  61  3.4806900    38.682046000 2.4942E2 5.8922E-6 3.8E-4 6.7958E-6 2.0214E-8 2.9176E-8 7.0543E-7 1.E-20 1.3901E-8  3.9402E-9  4.4366E-10 1.E-20
  62  3.1622700    39.394623000 2.5192E2 5.9202E-6 3.8E-4 6.3747E-6 1.6530E-8 2.9134E-8 6.5207E-7 1.E-20 1.3993E-8  3.3315E-9  3.2702E-10 1.E-20
  63  2.8729800    40.114437000 2.5440E2 5.9374E-6 3.8E-4 5.9523E-6 1.3704E-8 2.9208E-8 6.0507E-7 1.E-20 1.4068E-8  2.7852E-9  2.3862E-10 1.E-20
  64  2.6101600    40.841180000 2.5669E2 5.9473E-6 3.8E-4 5.5531E-6 1.1885E-8 2.9575E-8 5.7049E-7 1.E-20 1.4195E-8  2.3155E-9  1.7383E-10 1.E-20
  65  2.3713700    41.573691000 2.5831E2 5.9322E-6 3.8E-4 5.1653E-6 1.2028E-8 3.0989E-8 5.6810E-7 1.E-20 1.4501E-8  1.8888E-9  1.2596E-10 1.E-20
  66  2.1544300    42.310962000 2.5993E2 5.9171E-6 3.8E-4 4.8047E-6 1.2202E-8 3.2475E-8 5.6585E-7 1.E-20 1.4815E-8  1.5410E-9  9.1280E-11 1.E-20
  67  1.9573400    43.052075000 2.6090E2 5.9059E-6 3.8E-4 4.4850E-6 1.2856E-8 3.4416E-8 5.7257E-7 1.E-20 1.5130E-8  1.2434E-9  6.5917E-11 1.E-20
  68  1.7782800    43.795607000 2.6151E2 5.8969E-6 3.8E-4 4.1952E-6 1.3866E-8 3.6719E-8 5.8488E-7 1.E-20 1.5448E-8  9.9692E-10 4.7502E-11 1.E-20
  69  1.6156000    44.541037000 2.6211E2 5.8878E-6 3.8E-4 3.9242E-6 1.4991E-8 3.9184E-8 5.9767E-7 1.E-20 1.5773E-8  7.9904E-10 3.4234E-11 1.E-20
  70  1.4678000    45.287892000 2.6238E2 5.9074E-6 3.8E-4 3.6452E-6 1.3687E-8 3.9790E-8 5.8087E-7 1.E-20 1.5620E-8  6.2461E-10 2.3985E-11 1.E-20
  71  1.3335200    46.035696000 2.6265E2 5.9275E-6 3.8E-4 3.3856E-6 1.2483E-8 4.0387E-8 5.6422E-7 1.E-20 1.5462E-8  4.8807E-10 1.6797E-11 1.E-20
  72  1.2115300    46.784551000 2.6302E2 5.9470E-6 3.8E-4 3.1360E-6 1.1305E-8 4.1175E-8 5.4838E-7 1.E-20 1.5292E-8  3.8260E-10 1.1799E-11 1.E-20
  73  1.1006900    47.535044000 2.6363E2 5.9645E-6 3.8E-4 2.8851E-6 1.0051E-8 4.2417E-8 5.3354E-7 1.E-20 1.5089E-8  3.0234E-10 8.3509E-12 1.E-20
  74  1.0000000    48.287392000 2.6425E2 5.9820E-6 3.8E-4 2.6543E-6 8.9935E-9 4.3698E-8 5.1940E-7 1.E-20 1.4892E-8  2.3894E-10 5.9115E-12 1.E-20
  75  0.8254040    49.797577000 2.6541E2 5.9760E-6 3.8E-4 2.2444E-6 8.2831E-9 4.7464E-8 5.1499E-7 1.E-20 1.4462E-8  1.5227E-10 3.0409E-12 1.E-20
  76  0.6812920    51.313661000 2.6607E2 5.9510E-6 3.8E-4 1.9056E-6 7.7011E-9 5.1463E-8 5.1483E-7 1.E-20 1.3929E-8  9.7869E-11 1.5782E-12 1.E-20
  77  0.5623410    52.831892000 2.6591E2 5.9148E-6 3.8E-4 1.6304E-6 6.7832E-9 5.4937E-8 5.0976E-7 1.E-20 1.3244E-8  6.3095E-11 8.2028E-13 1.E-20
  78  0.4641590    54.344378000 2.6381E2 5.8805E-6 3.8E-4 1.4203E-6 5.6636E-9 5.8891E-8 4.9227E-7 1.E-20 1.2083E-8  3.9862E-11 4.4693E-13 1.E-20
  79  0.3831180    55.842914000 2.6077E2 5.8520E-6 3.8E-4 1.2438E-6 4.6919E-9 6.3046E-8 4.7547E-7 1.E-20 1.0961E-8  2.5364E-11 2.6154E-13 1.E-20
  80  0.3162290    57.320683000 2.5632E2 5.8336E-6 3.8E-4 1.0963E-6 3.8464E-9 6.7287E-8 4.6102E-7 1.E-20 9.9066E-9  1.6397E-11 1.7265E-13 1.E-20
  81  0.2610170    58.771376000 2.5105E2 5.8247E-6 3.8E-4 9.6492E-7 2.9270E-9 7.2284E-8 4.4083E-7 1.E-20 8.3977E-9  1.0366E-11 1.1097E-13 1.E-20
  82  0.2154430    60.190945000 2.4519E2 5.8225E-6 3.8E-4 8.4842E-7 2.1254E-9 7.8018E-8 4.1742E-7 1.E-20 6.8144E-9  6.4583E-12 7.0142E-14 1.E-20
  83  0.1778280    61.576671000 2.3903E2 5.8201E-6 3.8E-4 7.3934E-7 1.6935E-9 8.5232E-8 4.0109E-7 1.E-20 5.6399E-9  4.3923E-12 4.6541E-14 1.E-20
  84  0.1467800    62.927051000 2.3263E2 5.8176E-6 3.8E-4 6.3983E-7 1.4594E-9 9.4029E-8 3.8994E-7 1.E-20 4.7422E-9  3.1985E-12 3.2140E-14 1.E-20
  85  0.1211530    64.242099000 2.2650E2 5.8149E-6 3.8E-4 5.4361E-7 1.2642E-9 1.0450E-7 3.7932E-7 1.E-20 3.9177E-9  2.4437E-12 2.1887E-14 1.E-20
  86  0.0999995    65.524503000 2.2103E2 5.8119E-6 3.8E-4 4.4217E-7 1.0783E-9 1.1808E-7 3.6919E-7 1.E-20 3.0935E-9  2.0847E-12 1.4273E-14 1.E-20
